                 [µ/?]
       E         Total
     (keV)       cm2 g-1
 6.824268E-03  4.2705E+04
 6.926123E-03  4.1481E+04
 8.142217E-03  3.2469E+04
 8.266843E-03  3.2352E+04
 8.300076E-03  3.2341E+04
 8.349926E-03  5.7837E+04
 8.474552E-03  5.6718E+04
 1.069000E-02  5.9861E+04
 1.142761E-02  6.7392E+04
 1.221612E-02  7.7054E+04
 1.305903E-02  8.8504E+04
 1.396010E-02  1.0129E+05
 1.492335E-02  1.1478E+05
 1.595306E-02  1.2818E+05
 1.705382E-02  1.4053E+05
 1.823053E-02  1.5079E+05
 1.948844E-02  1.5801E+05
 2.083314E-02  1.6141E+05
 2.227063E-02  1.6058E+05
 2.380730E-02  1.5549E+05
 2.545001E-02  1.4655E+05
 2.720606E-02  1.3452E+05
 2.908327E-02  1.2034E+05
 3.109002E-02  1.0507E+05
 3.323523E-02  8.9725E+04
 3.552846E-02  7.5109E+04
 3.797993E-02  6.1791E+04
 4.060054E-02  5.0114E+04
 4.340198E-02  4.0190E+04
 4.639671E-02  3.1965E+04
 4.959809E-02  2.5284E+04
 5.262600E-02  2.0477E+04
 5.302035E-02  1.9938E+04
 5.343150E-02  1.9396E+04
 5.364630E-02  1.9120E+04
 5.396850E-02  3.4412E+04
 5.477400E-02  3.2653E+04
 5.667876E-02  2.8930E+04
 6.058959E-02  2.2850E+04
 6.477028E-02  1.8036E+04
 6.923942E-02  1.4260E+04
 7.026600E-02  1.3546E+04
 7.134150E-02  1.2851E+04
 7.162830E-02  1.2673E+04
 7.205850E-02  1.7817E+04
 7.313400E-02  1.7073E+04
 7.401695E-02  1.6498E+04
 7.912411E-02  1.3697E+04
 8.114400E-02  1.2769E+04
 8.238600E-02  1.2228E+04
 8.271720E-02  1.2088E+04
 8.321400E-02  1.3428E+04
 8.445600E-02  1.2854E+04
 8.458368E-02  1.2797E+04
 8.467200E-02  1.2757E+04
 8.596800E-02  1.2191E+04
 8.631360E-02  1.2044E+04
 8.683200E-02  1.2810E+04
 8.812800E-02  1.2253E+04
 9.041995E-02  1.1335E+04
 9.665893E-02  9.2869E+03
 1.033284E-01  7.7744E+03
 1.056440E-01  7.3761E+03
 1.072610E-01  7.1300E+03
 1.076922E-01  7.0686E+03
 1.083390E-01  7.1675E+03
 1.099560E-01  6.9604E+03
 1.104581E-01  6.9006E+03
 1.180797E-01  6.2158E+03
 1.262272E-01  5.8627E+03
 1.349368E-01  5.8351E+03
 1.442475E-01  6.0941E+03
 1.542005E-01  6.6251E+03
 1.648404E-01  7.4246E+03
 1.762144E-01  8.4579E+03
 1.883732E-01  9.6807E+03
 2.013709E-01  1.1031E+04
 2.152655E-01  1.2427E+04
 2.301188E-01  1.3777E+04
 2.459970E-01  1.4982E+04
 2.629708E-01  1.5957E+04
 2.811158E-01  1.6634E+04
 3.005128E-01  1.6976E+04
 3.212482E-01  1.6968E+04
 3.272220E-01  1.6906E+04
 3.322305E-01  1.6837E+04
 3.335661E-01  1.6816E+04
 3.355695E-01  1.7141E+04
 3.405780E-01  1.7065E+04
 3.434143E-01  1.7015E+04
 3.449600E-01  1.6987E+04
 3.502400E-01  1.6880E+04
 3.516480E-01  1.6849E+04
 3.537600E-01  1.7056E+04
 3.590400E-01  1.6939E+04
 3.671099E-01  1.6739E+04
 3.924405E-01  1.5988E+04
 4.195189E-01  1.5057E+04
 4.484657E-01  1.4012E+04
 4.794098E-01  1.2911E+04
 5.0000000E-01  1.2209E+04
 5.0250000E-01  1.2126E+04
 5.0501250E-01  1.2043E+04
 5.0753756E-01  1.1960E+04
 5.1007525E-01  1.1878E+04
 5.1262563E-01  1.1795E+04
 5.1518875E-01  1.1713E+04
 5.1776470E-01  1.1630E+04
 5.2035352E-01  1.1548E+04
 5.2295529E-01  1.1466E+04
 5.2557007E-01  1.1385E+04
 5.2819792E-01  1.1303E+04
 5.3083891E-01  1.1222E+04
 5.3349310E-01  1.1141E+04
 5.3616057E-01  1.1060E+04
 5.3884137E-01  1.0979E+04
 5.4153558E-01  1.0899E+04
 5.4424325E-01  1.0818E+04
 5.4469646E-01  1.0805E+04
 5.4610359E-01  1.1434E+04
 5.4696447E-01  1.1408E+04
 5.4969929E-01  1.1326E+04
 5.5244779E-01  1.1244E+04
 5.5521003E-01  1.1163E+04
 5.5798608E-01  1.1082E+04
 5.6077601E-01  1.1001E+04
 5.6357989E-01  1.0920E+04
 5.6639779E-01  1.0840E+04
 5.6922978E-01  1.0760E+04
 5.7207593E-01  1.0681E+04
 5.7493630E-01  1.0601E+04
 5.7781099E-01  1.0523E+04
 5.8070004E-01  1.0444E+04
 5.8360354E-01  1.0366E+04
 5.8652156E-01  1.0288E+04
 5.8945417E-01  1.0211E+04
 5.9240144E-01  1.0134E+04
 5.9536345E-01  1.0057E+04
 5.9834026E-01  9.9806E+03
 6.0133196E-01  9.9047E+03
 6.0433862E-01  9.8291E+03
 6.0736032E-01  9.7539E+03
 6.1039712E-01  9.6791E+03
 6.1344910E-01  9.6047E+03
 6.1651635E-01  9.5306E+03
 6.1959893E-01  9.4570E+03
 6.2269693E-01  9.3837E+03
 6.2581041E-01  9.3108E+03
 6.2893946E-01  9.2383E+03
 6.3208416E-01  9.1662E+03
 6.3524458E-01  9.0945E+03
 6.3842080E-01  9.0232E+03
 6.4161291E-01  8.9523E+03
 6.4278595E-01  8.9265E+03
 6.4461406E-01  9.0131E+03
 6.4482097E-01  9.0086E+03
 6.4804508E-01  8.9384E+03
 6.5128530E-01  8.8687E+03
 6.5454173E-01  8.7994E+03
 6.5781444E-01  8.7305E+03
 6.6110351E-01  8.6620E+03
 6.6440903E-01  8.5939E+03
 6.6773107E-01  8.5262E+03
 6.7106973E-01  8.4590E+03
 6.7442508E-01  8.3921E+03
 6.7779720E-01  8.3257E+03
 6.8118619E-01  8.2596E+03
 6.8459212E-01  8.1940E+03
 6.8801508E-01  8.1288E+03
 6.9145515E-01  8.0640E+03
 6.9491243E-01  7.9996E+03
 6.9838699E-01  7.9356E+03
 7.0187893E-01  7.8720E+03
 7.0538832E-01  7.8088E+03
 7.0891526E-01  7.7461E+03
 7.1245984E-01  7.6837E+03
 7.1602214E-01  7.6218E+03
 7.1960225E-01  7.5603E+03
 7.2320026E-01  7.4991E+03
 7.2681626E-01  7.4384E+03
 7.3045034E-01  7.3781E+03
 7.3410260E-01  7.3182E+03
 7.3777311E-01  7.2587E+03
 7.4146197E-01  7.1995E+03
 7.4516928E-01  7.1408E+03
 7.4889513E-01  7.0825E+03
 7.5263961E-01  7.0246E+03
 7.5640280E-01  6.9671E+03
 7.5759354E-01  6.9490E+03
 7.6000652E-01  7.0633E+03
 7.6018482E-01  7.0606E+03
 7.6398574E-01  7.0034E+03
 7.6780567E-01  6.9466E+03
 7.7164470E-01  6.8901E+03
 7.7550292E-01  6.8341E+03
 7.7938044E-01  6.7784E+03
 7.8327734E-01  6.7232E+03
 7.8719373E-01  6.6683E+03
 7.9112969E-01  6.6138E+03
 7.9508534E-01  6.5597E+03
 7.9906077E-01  6.5060E+03
 8.0305607E-01  6.4527E+03
 8.0707135E-01  6.3997E+03
 8.1110671E-01  6.3471E+03
 8.1516224E-01  6.2949E+03
 8.1923806E-01  6.2431E+03
 8.2333425E-01  6.1917E+03
 8.2745092E-01  6.1406E+03
 8.3158817E-01  6.0899E+03
 8.3574611E-01  6.0396E+03
 8.3992484E-01  5.9896E+03
 8.4412447E-01  5.9400E+03
 8.4834509E-01  5.8908E+03
 8.5258682E-01  5.8419E+03
 8.5684975E-01  5.7933E+03
 8.6113400E-01  5.7452E+03
 8.6543967E-01  5.6973E+03
 8.6976687E-01  5.6498E+03
 8.7411570E-01  5.6027E+03
 8.7848628E-01  5.5559E+03
 8.8287871E-01  5.5095E+03
 8.8729310E-01  5.4634E+03
 8.9172957E-01  5.4176E+03
 8.9618822E-01  5.3722E+03
 9.0066916E-01  5.3272E+03
 9.0517250E-01  5.2824E+03
 9.0969837E-01  5.2380E+03
 9.1424686E-01  5.1940E+03
 9.1881809E-01  5.1503E+03
 9.2341218E-01  5.1068E+03
 9.2802924E-01  5.0636E+03
 9.3266939E-01  5.0206E+03
 9.3733274E-01  4.9780E+03
 9.4201940E-01  4.9358E+03
 9.4672950E-01  4.8938E+03
 9.5146315E-01  4.8522E+03
 9.5622046E-01  4.8109E+03
 9.6100156E-01  4.7699E+03
 9.6580657E-01  4.7292E+03
 9.7063560E-01  4.6889E+03
 9.7548878E-01  4.6488E+03
 9.8036623E-01  4.6091E+03
 9.8526806E-01  4.5697E+03
 9.9019440E-01  4.5306E+03
 9.9514537E-01  4.4918E+03
 1.0001211E+00  4.4532E+03
 1.0051217E+00  4.4091E+03
 1.0101473E+00  4.3654E+03
 1.0151980E+00  4.3222E+03
 1.0202740E+00  4.2793E+03
 1.0253754E+00  4.2369E+03
 1.0305023E+00  4.1949E+03
 1.0356548E+00  4.1533E+03
 1.0408331E+00  4.1121E+03
 1.0460372E+00  4.0714E+03
 1.0512674E+00  4.0310E+03
 1.0565238E+00  3.9910E+03
 1.0618064E+00  3.9515E+03
 1.0671154E+00  3.9123E+03
 1.0724510E+00  3.8735E+03
 1.0778132E+00  3.8351E+03
 1.0832023E+00  3.7971E+03
 1.0886183E+00  3.7595E+03
 1.0940614E+00  3.7221E+03
 1.0995317E+00  3.6850E+03
 1.1050294E+00  3.6483E+03
 1.1105545E+00  3.6120E+03
 1.1161073E+00  3.5761E+03
 1.1216878E+00  3.5405E+03
 1.1272963E+00  3.5052E+03
 1.1329328E+00  3.4704E+03
 1.1385974E+00  3.4358E+03
 1.1442904E+00  3.4017E+03
 1.1500119E+00  3.3678E+03
 1.1557619E+00  3.3343E+03
 1.1615407E+00  3.3012E+03
 1.1673484E+00  3.2684E+03
 1.1731852E+00  3.2359E+03
 1.1790511E+00  3.2038E+03
 1.1849464E+00  3.1720E+03
 1.1908711E+00  3.1405E+03
 1.1968254E+00  3.1093E+03
 1.2028096E+00  3.0784E+03
 1.2088236E+00  3.0479E+03
 1.2148677E+00  3.0177E+03
 1.2209421E+00  2.9878E+03
 1.2270468E+00  2.9582E+03
 1.2331820E+00  2.9289E+03
 1.2393479E+00  2.8999E+03
 1.2455447E+00  2.8712E+03
 1.2517724E+00  2.8428E+03
 1.2580312E+00  2.8147E+03
 1.2643214E+00  2.7869E+03
 1.2706430E+00  2.7594E+03
 1.2769962E+00  2.7321E+03
 1.2833812E+00  2.7052E+03
 1.2897981E+00  2.6784E+03
 1.2962471E+00  2.6519E+03
 1.3027283E+00  2.6257E+03
 1.3092420E+00  2.5998E+03
 1.3157882E+00  2.5741E+03
 1.3223671E+00  2.5487E+03
 1.3289790E+00  2.5236E+03
 1.3356239E+00  2.4987E+03
 1.3423020E+00  2.4727E+03
 1.3490135E+00  2.4469E+03
 1.3557586E+00  2.4215E+03
 1.3625374E+00  2.3963E+03
 1.3693500E+00  2.3714E+03
 1.3761968E+00  2.3467E+03
 1.3830778E+00  2.3224E+03
 1.3899932E+00  2.2983E+03
 1.3969431E+00  2.2745E+03
 1.4039278E+00  2.2509E+03
 1.4109475E+00  2.2273E+03
 1.4180022E+00  2.2034E+03
 1.4250922E+00  2.1798E+03
 1.4322177E+00  2.1565E+03
 1.4393788E+00  2.1334E+03
 1.4465757E+00  2.1106E+03
 1.4538086E+00  2.0881E+03
 1.4610776E+00  2.0658E+03
 1.4683830E+00  2.0438E+03
 1.4757249E+00  2.0220E+03
 1.4831035E+00  2.0005E+03
 1.4905190E+00  1.9792E+03
 1.4979716E+00  1.9582E+03
 1.5054615E+00  1.9374E+03
 1.5129888E+00  1.9168E+03
 1.5205537E+00  1.8965E+03
 1.5281565E+00  1.8764E+03
 1.5357973E+00  1.8566E+03
 1.5434763E+00  1.8369E+03
 1.5511937E+00  1.8175E+03
 1.5589496E+00  1.7979E+03
 1.5667444E+00  1.7782E+03
 1.5745781E+00  1.7587E+03
 1.5824510E+00  1.7394E+03
 1.5903633E+00  1.7204E+03
 1.5983151E+00  1.7016E+03
 1.6063066E+00  1.6831E+03
 1.6143382E+00  1.6647E+03
 1.6224099E+00  1.6466E+03
 1.6305219E+00  1.6282E+03
 1.6386745E+00  1.6100E+03
 1.6468679E+00  1.5920E+03
 1.6551022E+00  1.5742E+03
 1.6633777E+00  1.5567E+03
 1.6716946E+00  1.5394E+03
 1.6800531E+00  1.5223E+03
 1.6884534E+00  1.5054E+03
 1.6968956E+00  1.4888E+03
 1.7053801E+00  1.4723E+03
 1.7139070E+00  1.4561E+03
 1.7224766E+00  1.4400E+03
 1.7310889E+00  1.4242E+03
 1.7397444E+00  1.4085E+03
 1.7484431E+00  1.3930E+03
 1.7571853E+00  1.3778E+03
 1.7659712E+00  1.3627E+03
 1.7748011E+00  1.3478E+03
 1.7836751E+00  1.3331E+03
 1.7925935E+00  1.3185E+03
 1.8015565E+00  1.3042E+03
 1.8105642E+00  1.2900E+03
 1.8196171E+00  1.2760E+03
 1.8287151E+00  1.2622E+03
 1.8378587E+00  1.2485E+03
 1.8470480E+00  1.2350E+03
 1.8562833E+00  1.2217E+03
 1.8655647E+00  1.2085E+03
 1.8748925E+00  1.1955E+03
 1.8842670E+00  1.1826E+03
 1.8936883E+00  1.1699E+03
 1.9031567E+00  1.1574E+03
 1.9126725E+00  1.1450E+03
 1.9222359E+00  1.1327E+03
 1.9318471E+00  1.1206E+03
 1.9415063E+00  1.1087E+03
 1.9512138E+00  1.0969E+03
 1.9609699E+00  1.0852E+03
 1.9707747E+00  1.0737E+03
 1.9806286E+00  1.0623E+03
 1.9905318E+00  1.0510E+03
 2.0004844E+00  1.0399E+03
 2.0104868E+00  1.0289E+03
 2.0205393E+00  1.0181E+03
 2.0306420E+00  1.0073E+03
 2.0407952E+00  9.9674E+02
 2.0509992E+00  9.8626E+02
 2.0612542E+00  9.7591E+02
 2.0715604E+00  9.6567E+02
 2.0819182E+00  9.5556E+02
 2.0923278E+00  9.4557E+02
 2.1027895E+00  9.3570E+02
 2.1133034E+00  9.2594E+02
 2.1238699E+00  9.1629E+02
 2.1344893E+00  9.0676E+02
 2.1451617E+00  8.9734E+02
 2.1558875E+00  8.8804E+02
 2.1666670E+00  8.7884E+02
 2.1775003E+00  8.6974E+02
 2.1883878E+00  8.6064E+02
 2.1993297E+00  8.5158E+02
 2.2051132E+00  8.4685E+02
 2.2062866E+00  2.5142E+03
 2.2103264E+00  2.5031E+03
 2.2213780E+00  2.4728E+03
 2.2324849E+00  2.4430E+03
 2.2436473E+00  2.4135E+03
 2.2548656E+00  2.3843E+03
 2.2661399E+00  2.3556E+03
 2.2774706E+00  2.3272E+03
 2.2888579E+00  2.2992E+03
 2.2904585E+00  2.2953E+03
 2.2917415E+00  3.3566E+03
 2.3003022E+00  3.3259E+03
 2.3118037E+00  3.2852E+03
 2.3233628E+00  3.2450E+03
 2.3349796E+00  3.2053E+03
 2.3466545E+00  3.1661E+03
 2.3583878E+00  3.1274E+03
 2.3701797E+00  3.0892E+03
 2.3820306E+00  3.0515E+03
 2.3939407E+00  3.0142E+03
 2.4059104E+00  2.9774E+03
 2.4179400E+00  2.9411E+03
 2.4300297E+00  2.9052E+03
 2.4421798E+00  2.8698E+03
 2.4543907E+00  2.8348E+03
 2.4666627E+00  2.8002E+03
 2.4789960E+00  2.7661E+03
 2.4913910E+00  2.7324E+03
 2.5038479E+00  2.6992E+03
 2.5163672E+00  2.6663E+03
 2.5289490E+00  2.6339E+03
 2.5415938E+00  2.6018E+03
 2.5543017E+00  2.5702E+03
 2.5670732E+00  2.5390E+03
 2.5799086E+00  2.5081E+03
 2.5928082E+00  2.4776E+03
 2.6057722E+00  2.4474E+03
 2.6188011E+00  2.4176E+03
 2.6318951E+00  2.3882E+03
 2.6450545E+00  2.3592E+03
 2.6582798E+00  2.3305E+03
 2.6715712E+00  2.3022E+03
 2.6849291E+00  2.2742E+03
 2.6983537E+00  2.2466E+03
 2.7118455E+00  2.2193E+03
 2.7254047E+00  2.1924E+03
 2.7390317E+00  2.1658E+03
 2.7404353E+00  2.1631E+03
 2.7455647E+00  2.5012E+03
 2.7527269E+00  2.4861E+03
 2.7664905E+00  2.4576E+03
 2.7803230E+00  2.4294E+03
 2.7942246E+00  2.4016E+03
 2.8081957E+00  2.3741E+03
 2.8222367E+00  2.3469E+03
 2.8363479E+00  2.3200E+03
 2.8505296E+00  2.2935E+03
 2.8647823E+00  2.2673E+03
 2.8791062E+00  2.2409E+03
 2.8935017E+00  2.2147E+03
 2.9079692E+00  2.1889E+03
 2.9225091E+00  2.1634E+03
 2.9371216E+00  2.1381E+03
 2.9518072E+00  2.1132E+03
 2.9665662E+00  2.0885E+03
 2.9813991E+00  2.0641E+03
 2.9963061E+00  2.0398E+03
 3.0112876E+00  2.0143E+03
 3.0263440E+00  1.9888E+03
 3.0414758E+00  1.9636E+03
 3.0566831E+00  1.9386E+03
 3.0719666E+00  1.9140E+03
 3.0873264E+00  1.8897E+03
 3.1027630E+00  1.8657E+03
 3.1182768E+00  1.8420E+03
 3.1338682E+00  1.8186E+03
 3.1431727E+00  1.8049E+03
 3.1495376E+00  1.9136E+03
 3.1524272E+00  1.9091E+03
 3.1652853E+00  1.8894E+03
 3.1811117E+00  1.8655E+03
 3.1970172E+00  1.8419E+03
 3.2130023E+00  1.8186E+03
 3.2290673E+00  1.7955E+03
 3.2452127E+00  1.7728E+03
 3.2614387E+00  1.7504E+03
 3.2777459E+00  1.7283E+03
 3.2941347E+00  1.7064E+03
 3.3106053E+00  1.6850E+03
 3.3271584E+00  1.6640E+03
 3.3437941E+00  1.6434E+03
 3.3605131E+00  1.6230E+03
 3.3773157E+00  1.6029E+03
 3.3942023E+00  1.5830E+03
 3.4111733E+00  1.5635E+03
 3.4177420E+00  1.5560E+03
 3.4282291E+00  1.6118E+03
 3.4320581E+00  1.6075E+03
 3.4453703E+00  1.5924E+03
 3.4625971E+00  1.5732E+03
 3.4799101E+00  1.5542E+03
 3.4973097E+00  1.5355E+03
 3.5147962E+00  1.5171E+03
 3.5323702E+00  1.4989E+03
 3.5500321E+00  1.4809E+03
 3.5677822E+00  1.4632E+03
 3.5856211E+00  1.4455E+03
 3.6035492E+00  1.4280E+03
 3.6215670E+00  1.4107E+03
 3.6396748E+00  1.3937E+03
 3.6578732E+00  1.3769E+03
 3.6761626E+00  1.3603E+03
 3.6945434E+00  1.3440E+03
 3.7130161E+00  1.3278E+03
 3.7315812E+00  1.3119E+03
 3.7502391E+00  1.2961E+03
 3.7689903E+00  1.2806E+03
 3.7878352E+00  1.2653E+03
 3.8067744E+00  1.2501E+03
 3.8258083E+00  1.2352E+03
 3.8449373E+00  1.2204E+03
 3.8641620E+00  1.2059E+03
 3.8834828E+00  1.1915E+03
 3.9029002E+00  1.1773E+03
 3.9224147E+00  1.1633E+03
 3.9420268E+00  1.1494E+03
 3.9617369E+00  1.1358E+03
 3.9815456E+00  1.1223E+03
 4.0014533E+00  1.1090E+03
 4.0214606E+00  1.0958E+03
 4.0415679E+00  1.0829E+03
 4.0617757E+00  1.0700E+03
 4.0820846E+00  1.0574E+03
 4.1024950E+00  1.0448E+03
 4.1230075E+00  1.0323E+03
 4.1436226E+00  1.0200E+03
 4.1643407E+00  1.0078E+03
 4.1851624E+00  9.9578E+02
 4.2060882E+00  9.8390E+02
 4.2271186E+00  9.7217E+02
 4.2482542E+00  9.6059E+02
 4.2694955E+00  9.4915E+02
 4.2908430E+00  9.3785E+02
 4.3122972E+00  9.2669E+02
 4.3338587E+00  9.1567E+02
 4.3555280E+00  9.0478E+02
 4.3773056E+00  8.9403E+02
 4.3991921E+00  8.8341E+02
 4.4211881E+00  8.7275E+02
 4.4432940E+00  8.6202E+02
 4.4655105E+00  8.5140E+02
 4.4878381E+00  8.4091E+02
 4.5102772E+00  8.3056E+02
 4.5328286E+00  8.2034E+02
 4.5554928E+00  8.1025E+02
 4.5782702E+00  8.0029E+02
 4.6011616E+00  7.9027E+02
 4.6241674E+00  7.8034E+02
 4.6472882E+00  7.7054E+02
 4.6705247E+00  7.6087E+02
 4.6938773E+00  7.5134E+02
 4.7173467E+00  7.4193E+02
 4.7409334E+00  7.3264E+02
 4.7646381E+00  7.2348E+02
 4.7884613E+00  7.1444E+02
 4.8124036E+00  7.0552E+02
 4.8364656E+00  6.9672E+02
 4.8606479E+00  6.8804E+02
 4.8849512E+00  6.7947E+02
 4.9093759E+00  6.7101E+02
 4.9339228E+00  6.6267E+02
 4.9585924E+00  6.5444E+02
 4.9833854E+00  6.4631E+02
 5.0083023E+00  6.3830E+02
 5.0333438E+00  6.3039E+02
 5.0585105E+00  6.2258E+02
 5.0838031E+00  6.1488E+02
 5.1092221E+00  6.0728E+02
 5.1347682E+00  5.9978E+02
 5.1604421E+00  5.9238E+02
 5.1862443E+00  5.8508E+02
 5.2121755E+00  5.7787E+02
 5.2382364E+00  5.7076E+02
 5.2644276E+00  5.6374E+02
 5.2907497E+00  5.5681E+02
 5.3172034E+00  5.4998E+02
 5.3437895E+00  5.4324E+02
 5.3705084E+00  5.3658E+02
 5.3973609E+00  5.3001E+02
 5.4243477E+00  5.2353E+02
 5.4514695E+00  5.1713E+02
 5.4787268E+00  5.1082E+02
 5.5061205E+00  5.0448E+02
 5.5336511E+00  4.9819E+02
 5.5613193E+00  4.9198E+02
 5.5891259E+00  4.8585E+02
 5.6170716E+00  4.7980E+02
 5.6451569E+00  4.7384E+02
 5.6733827E+00  4.6795E+02
 5.7017496E+00  4.6214E+02
 5.7302584E+00  4.5641E+02
 5.7589096E+00  4.5075E+02
 5.7877042E+00  4.4517E+02
 5.8166427E+00  4.3966E+02
 5.8457259E+00  4.3423E+02
 5.8749546E+00  4.2887E+02
 5.9043293E+00  4.2357E+02
 5.9338510E+00  4.1835E+02
 5.9635202E+00  4.1320E+02
 5.9933378E+00  4.0811E+02
 6.0233045E+00  4.0310E+02
 6.0534210E+00  3.9814E+02
 6.0836882E+00  3.9326E+02
 6.1141066E+00  3.8843E+02
 6.1446771E+00  3.8367E+02
 6.1754005E+00  3.7898E+02
 6.2062775E+00  3.7434E+02
 6.2373089E+00  3.6977E+02
 6.2684954E+00  3.6525E+02
 6.2998379E+00  3.6077E+02
 6.3313371E+00  3.5629E+02
 6.3629938E+00  3.5188E+02
 6.3948088E+00  3.4753E+02
 6.4267828E+00  3.4323E+02
 6.4589167E+00  3.3899E+02
 6.4912113E+00  3.3480E+02
 6.5236674E+00  3.3067E+02
 6.5562857E+00  3.2660E+02
 6.5890671E+00  3.2257E+02
 6.6220125E+00  3.1860E+02
 6.6551225E+00  3.1467E+02
 6.6883981E+00  3.1078E+02
 6.7218401E+00  3.0695E+02
 6.7554493E+00  3.0317E+02
 6.7892266E+00  2.9944E+02
 6.8231727E+00  2.9576E+02
 6.8572886E+00  2.9212E+02
 6.8915750E+00  2.8852E+02
 6.9260329E+00  2.8496E+02
 6.9606631E+00  2.8145E+02
 6.9954664E+00  2.7799E+02
 7.0304437E+00  2.7457E+02
 7.0655959E+00  2.7120E+02
 7.1009239E+00  2.6787E+02
 7.1364285E+00  2.6459E+02
 7.1721107E+00  2.6135E+02
 7.2079712E+00  2.5815E+02
 7.2440111E+00  2.5499E+02
 7.2802311E+00  2.5187E+02
 7.3166323E+00  2.4880E+02
 7.3532155E+00  2.4576E+02
 7.3899815E+00  2.4277E+02
 7.4269314E+00  2.3981E+02
 7.4640661E+00  2.3689E+02
 7.5013864E+00  2.3401E+02
 7.5388934E+00  2.3117E+02
 7.5765878E+00  2.2836E+02
 7.6144708E+00  2.2559E+02
 7.6525431E+00  2.2286E+02
 7.6908058E+00  2.2016E+02
 7.7292599E+00  2.1749E+02
 7.7679062E+00  2.1486E+02
 7.8067457E+00  2.1227E+02
 7.8457794E+00  2.0970E+02
 7.8850083E+00  2.0718E+02
 7.9244334E+00  2.0468E+02
 7.9640555E+00  2.0221E+02
 8.0038758E+00  1.9978E+02
 8.0438952E+00  1.9738E+02
 8.0841147E+00  1.9501E+02
 8.1245352E+00  1.9267E+02
 8.1651579E+00  1.9036E+02
 8.2059837E+00  1.8808E+02
 8.2470136E+00  1.8583E+02
 8.2882487E+00  1.8360E+02
 8.3296899E+00  1.8141E+02
 8.3713384E+00  1.7924E+02
 8.4131951E+00  1.7711E+02
 8.4552610E+00  1.7499E+02
 8.4975373E+00  1.7291E+02
 8.5400250E+00  1.7085E+02
 9.030794E+00  1.4906E+02
 9.653919E+00  1.2539E+02
 1.032004E+01  1.0530E+02
 1.103212E+01  8.8517E+01
 1.168033E+01  7.6448E+01
 1.179334E+01  7.4595E+01
 1.185911E+01  7.3547E+01
 1.190678E+01  7.2792E+01
 1.197829E+01  1.8324E+02
 1.215707E+01  1.7595E+02
 1.260708E+01  1.5930E+02
 1.345893E+01  1.3343E+02
 1.347697E+01  1.3296E+02
 1.366493E+01  1.2807E+02
 1.371987E+01  1.2669E+02
 1.380227E+01  1.7354E+02
 1.400827E+01  1.6676E+02
 1.406574E+01  1.6494E+02
 1.428104E+01  1.5835E+02
 1.433845E+01  1.5665E+02
 1.440688E+01  1.7869E+02
 1.442456E+01  1.7814E+02
 1.463986E+01  1.7162E+02
 1.540095E+01  1.5100E+02
 1.646362E+01  1.2732E+02
 1.759961E+01  1.0735E+02
 1.881398E+01  9.0437E+01
 2.011215E+01  7.6160E+01
 2.149988E+01  6.4175E+01
 2.298338E+01  5.4116E+01
