                 [µ/?]
       E         Total
     (keV)       cm2 g-1
 5.698350E-02  5.0742E+03
 5.783400E-02  5.5498E+03
 6.058959E-02  7.3540E+03
 6.477028E-02  1.0905E+04
 6.923942E-02  1.5328E+04
 7.401695E-02  2.0417E+04
 7.912411E-02  2.5916E+04
 8.458368E-02  3.1507E+04
 9.041995E-02  3.6854E+04
 9.665893E-02  4.1645E+04
 1.033284E-01  4.5631E+04
 1.104581E-01  4.8640E+04
 1.180797E-01  5.0587E+04
 1.262272E-01  5.1468E+04
 1.349368E-01  5.1346E+04
 1.442475E-01  5.0332E+04
 1.542005E-01  4.8566E+04
 1.586620E-01  4.7620E+04
 1.610905E-01  4.7076E+04
 1.617381E-01  4.6928E+04
 1.627095E-01  4.8709E+04
 1.648404E-01  4.8262E+04
 1.651380E-01  4.8199E+04
 1.673590E-01  4.7722E+04
 1.680318E-01  4.7576E+04
 1.690410E-01  4.8196E+04
 1.715640E-01  4.7667E+04
 1.762144E-01  4.6676E+04
 1.883732E-01  4.4033E+04
 2.013709E-01  4.1177E+04
 2.152655E-01  3.8193E+04
 2.268700E-01  3.5807E+04
 2.301188E-01  3.5159E+04
 2.303425E-01  3.5114E+04
 2.312685E-01  3.4931E+04
 2.326575E-01  3.6140E+04
 2.361300E-01  3.5457E+04
 2.459970E-01  3.3574E+04
 2.629708E-01  3.0549E+04
 2.811158E-01  2.7616E+04
 3.005128E-01  2.4817E+04
 3.212482E-01  2.2186E+04
 3.434143E-01  1.9740E+04
 3.671099E-01  1.7490E+04
 3.924405E-01  1.5440E+04
 4.195189E-01  1.3584E+04
 4.484657E-01  1.1916E+04
 4.794098E-01  1.0426E+04
 5.124891E-01  9.1007E+03
 5.478508E-01  7.9275E+03
 5.856525E-01  6.8926E+03
 6.260625E-01  5.9829E+03
 6.692609E-01  5.1852E+03
 7.154399E-01  4.4863E+03
 7.648052E-01  3.8759E+03
 8.175768E-01  3.3446E+03
 8.739896E-01  2.8837E+03
 9.0000000E-01  2.7013E+03
 9.0450000E-01  2.6714E+03
 9.0902250E-01  2.6418E+03
 9.1356761E-01  2.6126E+03
 9.1813545E-01  2.5837E+03
 9.2272613E-01  2.5551E+03
 9.2733976E-01  2.5268E+03
 9.3197646E-01  2.4988E+03
 9.3663634E-01  2.4711E+03
 9.4131952E-01  2.4438E+03
 9.4602612E-01  2.4167E+03
 9.5075625E-01  2.3899E+03
 9.5551003E-01  2.3635E+03
 9.6028758E-01  2.3373E+03
 9.6508902E-01  2.3114E+03
 9.6991446E-01  2.2858E+03
 9.7476404E-01  2.2605E+03
 9.7963786E-01  2.2354E+03
 9.8453605E-01  2.2107E+03
 9.8945873E-01  2.1862E+03
 9.9440602E-01  2.1620E+03
 9.9937805E-01  2.1380E+03
 1.0043749E+00  2.1114E+03
 1.0093968E+00  2.0846E+03
 1.0144438E+00  2.0583E+03
 1.0195160E+00  2.0322E+03
 1.0246136E+00  2.0065E+03
 1.0297367E+00  1.9812E+03
 1.0348853E+00  1.9562E+03
 1.0400598E+00  1.9315E+03
 1.0452601E+00  1.9071E+03
 1.0504864E+00  1.8831E+03
 1.0557388E+00  1.8593E+03
 1.0610175E+00  1.8359E+03
 1.0663226E+00  1.8125E+03
 1.0716542E+00  1.7886E+03
 1.0770125E+00  1.7651E+03
 1.0823975E+00  1.7419E+03
 1.0878095E+00  1.7191E+03
 1.0932486E+00  1.6965E+03
 1.0987148E+00  1.6743E+03
 1.1042084E+00  1.6524E+03
 1.1097294E+00  1.6307E+03
 1.1152781E+00  1.6094E+03
 1.1208545E+00  1.5884E+03
 1.1264587E+00  1.5677E+03
 1.1320910E+00  1.5472E+03
 1.1377515E+00  1.5270E+03
 1.1434402E+00  1.5071E+03
 1.1491574E+00  1.4875E+03
 1.1549032E+00  1.4682E+03
 1.1606777E+00  1.4491E+03
 1.1664811E+00  1.4303E+03
 1.1723135E+00  1.4117E+03
 1.1781751E+00  1.3934E+03
 1.1840660E+00  1.3754E+03
 1.1899863E+00  1.3576E+03
 1.1959362E+00  1.3400E+03
 1.2019159E+00  1.3227E+03
 1.2079255E+00  1.3057E+03
 1.2139651E+00  1.2888E+03
 1.2200350E+00  1.2722E+03
 1.2261351E+00  1.2558E+03
 1.2322658E+00  1.2396E+03
 1.2384271E+00  1.2237E+03
 1.2446193E+00  1.2080E+03
 1.2508424E+00  1.1925E+03
 1.2570966E+00  1.1772E+03
 1.2633821E+00  1.1621E+03
 1.2696990E+00  1.1472E+03
 1.2760475E+00  1.1325E+03
 1.2824277E+00  1.1180E+03
 1.2888399E+00  1.1037E+03
 1.2952840E+00  1.0896E+03
 1.3017605E+00  1.0757E+03
 1.3082693E+00  1.0620E+03
 1.3148106E+00  1.0485E+03
 1.3213847E+00  1.0351E+03
 1.3279916E+00  1.0220E+03
 1.3346316E+00  1.0090E+03
 1.3413047E+00  9.9618E+02
 1.3480112E+00  9.8354E+02
 1.3547513E+00  9.7107E+02
 1.3615250E+00  9.5876E+02
 1.3683327E+00  9.4663E+02
 1.3751743E+00  9.3465E+02
 1.3820502E+00  9.2284E+02
 1.3889605E+00  9.1118E+02
 1.3959053E+00  8.9968E+02
 1.4028848E+00  8.8834E+02
 1.4098992E+00  8.7715E+02
 1.4169487E+00  8.6610E+02
 1.4240335E+00  8.5521E+02
 1.4311536E+00  8.4446E+02
 1.4356568E+00  8.3776E+02
 1.4359431E+00  4.2888E+03
 1.4383094E+00  4.2705E+03
 1.4455009E+00  4.2154E+03
 1.4527284E+00  4.1610E+03
 1.4599921E+00  4.1074E+03
 1.4672920E+00  4.0544E+03
 1.4746285E+00  4.0022E+03
 1.4760494E+00  3.9922E+03
 1.4763506E+00  5.6488E+03
 1.4820016E+00  5.5931E+03
 1.4894117E+00  5.5211E+03
 1.4968587E+00  5.4501E+03
 1.5043430E+00  5.3801E+03
 1.5118647E+00  5.3109E+03
 1.5194240E+00  5.2426E+03
 1.5270212E+00  5.1752E+03
 1.5346563E+00  5.1087E+03
 1.5423295E+00  5.0431E+03
 1.5500412E+00  4.9783E+03
 1.5577914E+00  4.9143E+03
 1.5655804E+00  4.8512E+03
 1.5734083E+00  4.7888E+03
 1.5812753E+00  4.7273E+03
 1.5891817E+00  4.6666E+03
 1.5971276E+00  4.6067E+03
 1.6051132E+00  4.5475E+03
 1.6131388E+00  4.4891E+03
 1.6212045E+00  4.4315E+03
 1.6293105E+00  4.3746E+03
 1.6374571E+00  4.3185E+03
 1.6456443E+00  4.2631E+03
 1.6524595E+00  4.2177E+03
 1.6538726E+00  4.2084E+03
 1.6553406E+00  4.8150E+03
 1.6621419E+00  4.7659E+03
 1.6704526E+00  4.7069E+03
 1.6788049E+00  4.6485E+03
 1.6871989E+00  4.5910E+03
 1.6956349E+00  4.5341E+03
 1.7041131E+00  4.4780E+03
 1.7126337E+00  4.4225E+03
 1.7211968E+00  4.3678E+03
 1.7298028E+00  4.3137E+03
 1.7384518E+00  4.2606E+03
 1.7471441E+00  4.2084E+03
 1.7558798E+00  4.1569E+03
 1.7646592E+00  4.1061E+03
 1.7734825E+00  4.0560E+03
 1.7823499E+00  4.0065E+03
 1.7912617E+00  3.9577E+03
 1.8002180E+00  3.9095E+03
 1.8092191E+00  3.8620E+03
 1.8182652E+00  3.8150E+03
 1.8273565E+00  3.7687E+03
 1.8364933E+00  3.7229E+03
 1.8456757E+00  3.6778E+03
 1.8549041E+00  3.6332E+03
 1.8641786E+00  3.5892E+03
 1.8734995E+00  3.5454E+03
 1.8828670E+00  3.5020E+03
 1.8922814E+00  3.4591E+03
 1.9017428E+00  3.4168E+03
 1.9112515E+00  3.3750E+03
 1.9208077E+00  3.3337E+03
 1.9304118E+00  3.2927E+03
 1.9400638E+00  3.2522E+03
 1.9497642E+00  3.2122E+03
 1.9595130E+00  3.1727E+03
 1.9693105E+00  3.1337E+03
 1.9791571E+00  3.0952E+03
 1.9890529E+00  3.0571E+03
 1.9989981E+00  3.0196E+03
 2.0089931E+00  2.9825E+03
 2.0190381E+00  2.9458E+03
 2.0291333E+00  2.9096E+03
 2.0392790E+00  2.8739E+03
 2.0494754E+00  2.8386E+03
 2.0597227E+00  2.8037E+03
 2.0700213E+00  2.7693E+03
 2.0803714E+00  2.7353E+03
 2.0907733E+00  2.7017E+03
 2.1012272E+00  2.6686E+03
 2.1117333E+00  2.6358E+03
 2.1222920E+00  2.6034E+03
 2.1329034E+00  2.5715E+03
 2.1435680E+00  2.5399E+03
 2.1542858E+00  2.5086E+03
 2.1650572E+00  2.4775E+03
 2.1758825E+00  2.4468E+03
 2.1867619E+00  2.4164E+03
 2.1976957E+00  2.3864E+03
 2.2086842E+00  2.3568E+03
 2.2197276E+00  2.3276E+03
 2.2308263E+00  2.2987E+03
 2.2419804E+00  2.2701E+03
 2.2531903E+00  2.2419E+03
 2.2644562E+00  2.2141E+03
 2.2757785E+00  2.1866E+03
 2.2871574E+00  2.1594E+03
 2.2985932E+00  2.1326E+03
 2.3100862E+00  2.1061E+03
 2.3216366E+00  2.0799E+03
 2.3332448E+00  2.0541E+03
 2.3449110E+00  2.0286E+03
 2.3566356E+00  2.0034E+03
 2.3684187E+00  1.9785E+03
 2.3802608E+00  1.9539E+03
 2.3921621E+00  1.9296E+03
 2.4041230E+00  1.9056E+03
 2.4161436E+00  1.8819E+03
 2.4282243E+00  1.8585E+03
 2.4403654E+00  1.8354E+03
 2.4525672E+00  1.8126E+03
 2.4648301E+00  1.7900E+03
 2.4771542E+00  1.7678E+03
 2.4895400E+00  1.7458E+03
 2.5019877E+00  1.7241E+03
 2.5144976E+00  1.7027E+03
 2.5270701E+00  1.6815E+03
 2.5397055E+00  1.6606E+03
 2.5524040E+00  1.6399E+03
 2.5651660E+00  1.6195E+03
 2.5779919E+00  1.5994E+03
 2.5908818E+00  1.5795E+03
 2.6038362E+00  1.5599E+03
 2.6168554E+00  1.5405E+03
 2.6299397E+00  1.5214E+03
 2.6430894E+00  1.5025E+03
 2.6563048E+00  1.4838E+03
 2.6695863E+00  1.4654E+03
 2.6829343E+00  1.4472E+03
 2.6963489E+00  1.4292E+03
 2.7098307E+00  1.4115E+03
 2.7233798E+00  1.3939E+03
 2.7369967E+00  1.3766E+03
 2.7506817E+00  1.3595E+03
 2.7644351E+00  1.3427E+03
 2.7782573E+00  1.3260E+03
 2.7921486E+00  1.3096E+03
 2.8061093E+00  1.2933E+03
 2.8201399E+00  1.2773E+03
 2.8342406E+00  1.2615E+03
 2.8484118E+00  1.2458E+03
 2.8626539E+00  1.2304E+03
 2.8769671E+00  1.2151E+03
 2.8913520E+00  1.1999E+03
 2.9058087E+00  1.1848E+03
 2.9203378E+00  1.1699E+03
 2.9349394E+00  1.1553E+03
 2.9496141E+00  1.1408E+03
 2.9643622E+00  1.1264E+03
 2.9791840E+00  1.1122E+03
 2.9940799E+00  1.0982E+03
 3.0090503E+00  1.0838E+03
 3.0240956E+00  1.0693E+03
 3.0392161E+00  1.0550E+03
 3.0544122E+00  1.0408E+03
 3.0696842E+00  1.0268E+03
 3.0850326E+00  1.0129E+03
 3.1004578E+00  9.9934E+02
 3.1159601E+00  9.8591E+02
 3.1315399E+00  9.7268E+02
 3.1471976E+00  9.5962E+02
 3.1629336E+00  9.4674E+02
 3.1787482E+00  9.3402E+02
 3.1946420E+00  9.2147E+02
 3.2106152E+00  9.0910E+02
 3.2266683E+00  8.9691E+02
 3.2428016E+00  8.8488E+02
 3.2590156E+00  8.7302E+02
 3.2753107E+00  8.6132E+02
 3.2916873E+00  8.4979E+02
 3.3081457E+00  8.3841E+02
 3.3246864E+00  8.2701E+02
 3.3413099E+00  8.1576E+02
 3.3580164E+00  8.0468E+02
 3.3748065E+00  7.9375E+02
 3.3916805E+00  7.8297E+02
 3.4086389E+00  7.7234E+02
 3.4256821E+00  7.6186E+02
 3.4428105E+00  7.5153E+02
 3.4600246E+00  7.4134E+02
 3.4773247E+00  7.3129E+02
 3.4947113E+00  7.2138E+02
 3.5121849E+00  7.1161E+02
 3.5297458E+00  7.0198E+02
 3.5473945E+00  6.9248E+02
 3.5651315E+00  6.8311E+02
 3.5829572E+00  6.7388E+02
 3.6008719E+00  6.6477E+02
 3.6188763E+00  6.5579E+02
 3.6369707E+00  6.4693E+02
 3.6551555E+00  6.3820E+02
 3.6734313E+00  6.2959E+02
 3.6917985E+00  6.2109E+02
 3.7102575E+00  6.1272E+02
 3.7288088E+00  6.0446E+02
 3.7474528E+00  5.9632E+02
 3.7661901E+00  5.8829E+02
 3.7850210E+00  5.8037E+02
 3.8039461E+00  5.7256E+02
 3.8229659E+00  5.6486E+02
 3.8420807E+00  5.5726E+02
 3.8612911E+00  5.4977E+02
 3.8805975E+00  5.4239E+02
 3.9000005E+00  5.3510E+02
 3.9195005E+00  5.2792E+02
 3.9390980E+00  5.2084E+02
 3.9587935E+00  5.1385E+02
 3.9785875E+00  5.0696E+02
 3.9984804E+00  5.0017E+02
 4.0184728E+00  4.9347E+02
 4.0385652E+00  4.8686E+02
 4.0587580E+00  4.8035E+02
 4.0790518E+00  4.7392E+02
 4.0994471E+00  4.6758E+02
 4.1199443E+00  4.6133E+02
 4.1405440E+00  4.5517E+02
 4.1612467E+00  4.4909E+02
 4.1820530E+00  4.4309E+02
 4.2029632E+00  4.3718E+02
 4.2239781E+00  4.3135E+02
 4.2450980E+00  4.2560E+02
 4.2663234E+00  4.1993E+02
 4.2876551E+00  4.1433E+02
 4.3090933E+00  4.0882E+02
 4.3306388E+00  4.0337E+02
 4.3522920E+00  3.9800E+02
 4.3740535E+00  3.9270E+02
 4.3959237E+00  3.8746E+02
 4.4179033E+00  3.8230E+02
 4.4399929E+00  3.7721E+02
 4.4621928E+00  3.7219E+02
 4.4845038E+00  3.6724E+02
 4.5069263E+00  3.6235E+02
 4.5294609E+00  3.5754E+02
 4.5521082E+00  3.5279E+02
 4.5748688E+00  3.4810E+02
 4.5977431E+00  3.4348E+02
 4.6207318E+00  3.3892E+02
 4.6438355E+00  3.3443E+02
 4.6670547E+00  3.2999E+02
 4.6903900E+00  3.2562E+02
 4.7138419E+00  3.2130E+02
 4.7374111E+00  3.1705E+02
 4.7610982E+00  3.1285E+02
 4.7849037E+00  3.0871E+02
 4.8088282E+00  3.0463E+02
 4.8328723E+00  3.0060E+02
 4.8570367E+00  2.9663E+02
 4.8813219E+00  2.9271E+02
 4.9057285E+00  2.8885E+02
 4.9302571E+00  2.8504E+02
 4.9549084E+00  2.8128E+02
 4.9796829E+00  2.7757E+02
 5.0045814E+00  2.7391E+02
 5.0296043E+00  2.7030E+02
 5.0547523E+00  2.6674E+02
 5.0800260E+00  2.6323E+02
 5.1054262E+00  2.5977E+02
 5.1309533E+00  2.5635E+02
 5.1566081E+00  2.5298E+02
 5.1823911E+00  2.4966E+02
 5.2083031E+00  2.4638E+02
 5.2343446E+00  2.4315E+02
 5.2605163E+00  2.3996E+02
 5.2868189E+00  2.3681E+02
 5.3132530E+00  2.3371E+02
 5.3398192E+00  2.3065E+02
 5.3665183E+00  2.2763E+02
 5.3933509E+00  2.2465E+02
 5.4203177E+00  2.2171E+02
 5.4474193E+00  2.1881E+02
 5.4746564E+00  2.1595E+02
 5.5020297E+00  2.1313E+02
 5.5295398E+00  2.1034E+02
 5.5571875E+00  2.0760E+02
 5.5849734E+00  2.0489E+02
 5.6128983E+00  2.0222E+02
 5.6409628E+00  1.9958E+02
 5.6691676E+00  1.9698E+02
 5.6975135E+00  1.9441E+02
 5.7260010E+00  1.9188E+02
 5.7546310E+00  1.8939E+02
 5.7834042E+00  1.8692E+02
 5.8123212E+00  1.8449E+02
 5.8413828E+00  1.8210E+02
 5.8705897E+00  1.7973E+02
 5.8999427E+00  1.7740E+02
 5.9294424E+00  1.7510E+02
 5.9590896E+00  1.7283E+02
 5.9888850E+00  1.7059E+02
 6.0188295E+00  1.6838E+02
 6.0489236E+00  1.6620E+02
 6.0791682E+00  1.6404E+02
 6.1095641E+00  1.6192E+02
 6.1401119E+00  1.5983E+02
 6.1708125E+00  1.5776E+02
 6.2016665E+00  1.5572E+02
 6.2326749E+00  1.5369E+02
 6.2638382E+00  1.5166E+02
 6.2951574E+00  1.4965E+02
 6.3266332E+00  1.4768E+02
 6.3582664E+00  1.4572E+02
 6.3900577E+00  1.4380E+02
 6.4220080E+00  1.4188E+02
 6.4541180E+00  1.3999E+02
 6.4863886E+00  1.3812E+02
 6.5188206E+00  1.3627E+02
 6.5514147E+00  1.3445E+02
 6.5841717E+00  1.3266E+02
 6.915365E+00  1.1636E+02
 7.392525E+00  9.7216E+01
 7.902609E+00  8.1119E+01
 8.447890E+00  6.7775E+01
 9.030794E+00  5.6513E+01
 9.653919E+00  4.6632E+01
 1.032004E+01  3.8538E+01
 1.103212E+01  3.1898E+01
 1.179334E+01  2.6445E+01
 1.240464E+01  2.2970E+01
 1.260708E+01  2.1960E+01
 1.264514E+01  2.1778E+01
 1.272109E+01  1.6006E+02
 1.291096E+01  1.5297E+02
 1.347697E+01  1.3469E+02
 1.440688E+01  1.1267E+02
 1.540095E+01  9.4984E+01
 1.646362E+01  8.0305E+01
 1.759961E+01  6.7316E+01
 1.881398E+01  5.6338E+01
 2.011215E+01  4.7090E+01
 2.149988E+01  3.9334E+01
 2.298338E+01  3.2853E+01
 2.456923E+01  2.7453E+01
 2.626450E+01  2.2916E+01
 2.807676E+01  1.9017E+01
 3.001405E+01  1.5762E+01
 3.208502E+01  1.3070E+01
 3.429889E+01  1.0843E+01
 3.666551E+01  8.9989E+00
 3.919543E+01  7.4717E+00
 4.189992E+01  6.2089E+00
 4.479101E+01  5.1646E+00
 4.788159E+01  4.3008E+00
 5.118542E+01  3.5860E+00
 5.471721E+01  2.9943E+00
 5.849270E+01  2.4912E+00
 6.252870E+01  2.0764E+00
 6.684318E+01  1.7347E+00
 7.145536E+01  1.4532E+00
 7.638578E+01  1.2209E+00
 8.165640E+01  1.0285E+00
 8.729069E+01  8.6797E-01
 9.331374E+01  7.3581E-01
 9.975239E+01  6.2689E-01
 1.066353E+02  5.3700E-01
 1.139931E+02  4.6274E-01
 1.218587E+02  4.0128E-01
 1.302669E+02  3.5035E-01
 1.392553E+02  3.0804E-01
 1.488640E+02  2.7282E-01
 1.591356E+02  2.4341E-01
 1.701159E+02  2.1878E-01
 1.818539E+02  1.9808E-01
 1.944018E+02  1.8060E-01
 2.078156E+02  1.6577E-01
 2.221548E+02  1.5314E-01
 2.374835E+02  1.4230E-01
 2.538699E+02  1.3294E-01
 2.713869E+02  1.2480E-01
 2.901126E+02  1.1768E-01
 3.101304E+02  1.1139E-01
 3.315294E+02  1.0579E-01
 3.544049E+02  1.0076E-01
 3.788588E+02  9.6220E-02
 4.050001E+02  9.2076E-02
 4.329451E+02  8.8267E-02